Data from kco_Splice17_005.txt Node
Date: Tue Mar 18 08:44:17 EST 2014
User: johanlon
Spectrometer: USB2+H09794
Autoset integration time: false
Trigger mode: 4
Integration Time (sec): 2.000000E-2
Scans to average: 10
Electric dark correction enabled: true
Nonlinearity correction enabled: false
Boxcar width: 10
XAxis mode: Wavelengths
Stop averaging: false
Number of Pixels in Spectrum: 2048
>>>>>Begin Spectral Data<<<<<
1.8792E2	18.995E0
1.8839E2	33.852E0
1.8886E2	50.336E0
1.8933E2	88.988E0
1.8981E2	1.0539E2
1.9028E2	89.261E0
1.9075E2	1.1021E2
1.9122E2	-60.00E0
1.9169E2	45.293E0
1.9216E2	23.467E0
1.9263E2	1.115E-12
1.931E2	20.838E0
1.9357E2	49.956E0
1.9404E2	85.949E0
1.9451E2	1.0191E2
1.9498E2	1.4459E2
1.9545E2	1.5517E2
1.9592E2	-1.3555E4
1.9639E2	-62.069E2
1.9686E2	-4.7761E2
1.9733E2	-1.420E2
1.9781E2	-1.0408E2
1.9828E2	-94.637E0
1.9875E2	-1.4588E2
1.9922E2	-84.982E0
1.9969E2	-64.447E0
2.0016E2	-55.86E0
2.0063E2	-27.055E0
2.011E2	-37.731E0
2.0157E2	-25.974E0
2.0203E2	-8.3293E0
2.025E2	-13.546E0
2.0297E2	-4.4851E0
2.0344E2	-5.5649E0
2.0391E2	58.832E-2
2.0438E2	-2.6629E0
2.0485E2	-4.1396E0
2.0532E2	1.616E0
2.0579E2	11.816E0
2.0626E2	13.767E0
2.0673E2	12.977E0
2.072E2	12.005E0
2.0767E2	16.522E0
2.0814E2	19.381E0
2.0861E2	19.757E0
2.0908E2	14.448E0
2.0955E2	11.17E0
2.1001E2	9.4006E0
2.1048E2	9.6588E0
2.1095E2	12.319E0
2.1142E2	11.645E0
2.1189E2	2.0091E0
2.1236E2	-21.047E-2
2.1283E2	-4.3949E0
2.133E2	-29.171E-2
2.1376E2	-1.1108E0
2.1423E2	4.9229E0
2.147E2	11.117E0
2.1517E2	13.076E0
2.1564E2	4.261E0
2.1611E2	4.7954E0
2.1658E2	5.508E0
2.1704E2	3.092E0
2.1751E2	-62.623E-2
2.1798E2	-3.6799E0
2.1845E2	1.2541E0
2.1892E2	4.6331E0
2.1938E2	7.5709E0
2.1985E2	5.1549E0
2.2032E2	1.4176E0
2.2079E2	-3.3451E0
2.2126E2	-3.1868E0
2.2172E2	-1.9301E0
2.2219E2	-1.0251E0
2.2266E2	-3.9992E0
2.2313E2	-5.3245E0
2.2359E2	-4.0825E0
2.2406E2	-3.2542E0
2.2453E2	-5.9159E0
2.250E2	-7.3304E0
2.2546E2	-3.7768E0
2.2593E2	-3.403E0
2.264E2	-3.8624E0
2.2687E2	-3.4804E0
2.2733E2	-2.7332E0
2.278E2	-3.2962E0
2.2827E2	-4.8937E0
2.2874E2	-3.8856E0
2.292E2	-3.7034E0
2.2967E2	-4.3155E0
2.3014E2	-3.3949E0
2.306E2	-3.411E0
2.3107E2	-4.2234E0
2.3154E2	-2.9395E0
2.320E2	-2.9305E0
2.3247E2	-2.3675E0
2.3294E2	-3.6873E0
2.334E2	-3.0402E0
2.3387E2	-4.511E0
2.3434E2	-3.9865E0
2.348E2	-3.3282E0
2.3527E2	-3.4898E0
2.3574E2	-2.5413E0
2.362E2	-3.1866E0
2.3667E2	-2.9525E0
2.3714E2	-3.707E0
2.376E2	-2.1842E0
2.3807E2	-2.4238E0
2.3853E2	-2.2082E0
2.390E2	-64.689E-2
2.3947E2	24.597E-2
2.3993E2	-52.272E-2
2.404E2	-4.6012E-2
2.4086E2	11.162E-2
2.4133E2	-50.279E-2
2.418E2	91.799E-4
2.4226E2	9.8112E-2
2.4273E2	64.111E-2
2.4319E2	28.806E-2
2.4366E2	19.667E-2
2.4413E2	20.469E-2
2.4459E2	-13.82E-2
2.4506E2	-61.718E-2
2.4552E2	-86.597E-2
2.4599E2	-1.1973E0
2.4645E2	-1.0431E0
2.4692E2	-1.0007E0
2.4738E2	-85.944E-2
2.4785E2	-55.502E-2
2.4831E2	-66.441E-2
2.4878E2	-1.0048E0
2.4924E2	-88.701E-2
2.4971E2	-79.446E-2
2.5017E2	-96.108E-2
2.5064E2	-1.070E0
2.511E2	-70.774E-2
2.5157E2	-1.0287E0
2.5203E2	-1.0636E0
2.525E2	-1.0798E0
2.5296E2	-87.347E-2
2.5343E2	-1.008E0
2.5389E2	-1.551E0
2.5436E2	-1.4742E0
2.5482E2	-1.1196E0
2.5529E2	-1.4008E0
2.5575E2	-98.501E-2
2.5621E2	-1.0948E0
2.5668E2	-52.371E-2
2.5714E2	-85.803E-2
2.5761E2	-1.2839E0
2.5807E2	-1.3426E0
2.5854E2	-1.2603E0
2.590E2	-1.2933E0
2.5946E2	-1.083E0
2.5993E2	-1.1008E0
2.6039E2	-80.671E-2
2.6086E2	-1.1743E0
2.6132E2	-1.1706E0
2.6178E2	-1.2703E0
2.6225E2	-1.4103E0
2.6271E2	-1.8705E0
2.6317E2	-1.8425E0
2.6364E2	-1.7602E0
2.641E2	-1.7884E0
2.6456E2	-1.8043E0
2.6503E2	-1.6549E0
2.6549E2	-2.0324E0
2.6595E2	-2.1178E0
2.6642E2	-2.5103E0
2.6688E2	-2.4103E0
2.6734E2	-2.3173E0
2.6781E2	-2.6511E0
2.6827E2	-2.8338E0
2.6873E2	-2.9786E0
2.692E2	-3.1852E0
2.6966E2	-3.2363E0
2.7012E2	-3.4983E0
2.7059E2	-3.2201E0
2.7105E2	-3.1056E0
2.7151E2	-3.1855E0
2.7197E2	-3.2798E0
2.7244E2	-2.9454E0
2.729E2	-2.824E0
2.7336E2	-2.3409E0
2.7383E2	-1.979E0
2.7429E2	-1.9848E0
2.7475E2	-1.8145E0
2.7521E2	-1.4908E0
2.7568E2	-1.3066E0
2.7614E2	-1.1524E0
2.766E2	-1.3315E0
2.7706E2	-1.055E0
2.7752E2	-72.931E-2
2.7799E2	-56.326E-2
2.7845E2	-68.168E-2
2.7891E2	-58.151E-2
2.7937E2	-44.103E-2
2.7983E2	-21.287E-2
2.803E2	-53.175E-2
2.8076E2	-53.533E-2
2.8122E2	-45.107E-2
2.8168E2	-20.186E-2
2.8214E2	-32.218E-2
2.8261E2	-41.637E-2
2.8307E2	-60.528E-2
2.8353E2	-1.1233E0
2.8399E2	-1.3531E0
2.8445E2	-1.3503E0
2.8491E2	-1.2846E0
2.8537E2	-1.1383E0
2.8584E2	-1.3219E0
2.863E2	-1.0789E0
2.8676E2	-1.2596E0
2.8722E2	-1.4299E0
2.8768E2	-1.5334E0
2.8814E2	-1.3649E0
2.886E2	-1.4782E0
2.8906E2	-1.4118E0
2.8952E2	-1.4667E0
2.8999E2	-1.3333E0
2.9045E2	-1.2566E0
2.9091E2	-1.1028E0
2.9137E2	-1.0592E0
2.9183E2	-1.1216E0
2.9229E2	-1.0784E0
2.9275E2	-1.1908E0
2.9321E2	-99.82E-2
2.9367E2	-71.642E-2
2.9413E2	-67.983E-2
2.9459E2	-52.202E-2
2.9505E2	-81.614E-2
2.9551E2	-1.0416E0
2.9597E2	-1.3287E0
2.9643E2	-1.2689E0
2.9689E2	-1.1671E0
2.9735E2	-1.2831E0
2.9781E2	-1.4247E0
2.9827E2	-1.428E0
2.9873E2	-1.3481E0
2.9919E2	-1.5653E0
2.9965E2	-1.5905E0
3.0011E2	-1.8122E0
3.0057E2	-2.055E0
3.0103E2	-2.3575E0
3.0149E2	-2.3424E0
3.0195E2	-2.3853E0
3.0241E2	-2.1704E0
3.0287E2	-2.1212E0
3.0333E2	-2.197E0
3.0379E2	-2.4379E0
3.0425E2	-2.7441E0
3.0471E2	-2.6768E0
3.0517E2	-2.3616E0
3.0563E2	-2.2929E0
3.0609E2	-2.3793E0
3.0655E2	-2.3572E0
3.0701E2	-2.1706E0
3.0747E2	-2.240E0
3.0793E2	-2.1539E0
3.0838E2	-2.248E0
3.0884E2	-2.1463E0
3.093E2	-2.1289E0
3.0976E2	-1.7653E0
3.1022E2	-1.7284E0
3.1068E2	-1.5342E0
3.1114E2	-1.1612E0
3.116E2	-1.2487E0
3.1205E2	-1.2914E0
3.1251E2	-99.322E-2
3.1297E2	-1.0909E0
3.1343E2	-1.1859E0
3.1389E2	-1.0382E0
3.1435E2	-1.0385E0
3.1481E2	-1.0249E0
3.1526E2	-99.278E-2
3.1572E2	-94.133E-2
3.1618E2	-99.157E-2
3.1664E2	-91.516E-2
3.171E2	-72.787E-2
3.1755E2	-1.0546E0
3.1801E2	-88.719E-2
3.1847E2	-92.469E-2
3.1893E2	-83.558E-2
3.1939E2	-79.94E-2
3.1984E2	-78.476E-2
3.203E2	-1.0786E0
3.2076E2	-1.6646E0
3.2122E2	-1.7281E0
3.2168E2	-1.7764E0
3.2213E2	-2.3343E0
3.2259E2	-2.491E0
3.2305E2	-2.3983E0
3.2351E2	-2.402E0
3.2396E2	-2.2085E0
3.2442E2	-2.3012E0
3.2488E2	-2.3463E0
3.2533E2	-2.3213E0
3.2579E2	-2.4044E0
3.2625E2	-2.3737E0
3.2671E2	-2.4244E0
3.2716E2	-2.1509E0
3.2762E2	-2.2977E0
3.2808E2	-1.9784E0
3.2853E2	-2.209E0
3.2899E2	-2.154E0
3.2945E2	-2.0677E0
3.299E2	-1.7941E0
3.3036E2	-1.5219E0
3.3082E2	-1.2281E0
3.3127E2	-1.4735E0
3.3173E2	-1.5334E0
3.3219E2	-1.3256E0
3.3264E2	-1.2725E0
3.331E2	-1.2833E0
3.3356E2	-1.462E0
3.3401E2	-1.5654E0
3.3447E2	-1.5752E0
3.3493E2	-1.5526E0
3.3538E2	-1.4769E0
3.3584E2	-1.6617E0
3.3629E2	-1.6704E0
3.3675E2	-1.6337E0
3.3721E2	-1.6875E0
3.3766E2	-1.8486E0
3.3812E2	-1.6425E0
3.3857E2	-1.9441E0
3.3903E2	-2.0283E0
3.3949E2	-1.8596E0
3.3994E2	-1.860E0
3.404E2	-2.1177E0
3.4085E2	-2.1543E0
3.4131E2	-2.0733E0
3.4176E2	-1.9769E0
3.4222E2	-1.9134E0
3.4268E2	-1.9069E0
3.4313E2	-1.8796E0
3.4359E2	-1.8005E0
3.4404E2	-1.6973E0
3.445E2	-1.735E0
3.4495E2	-1.711E0
3.4541E2	-1.7358E0
3.4586E2	-1.6622E0
3.4632E2	-1.7874E0
3.4677E2	-1.6941E0
3.4723E2	-1.5457E0
3.4768E2	-1.5866E0
3.4814E2	-1.5066E0
3.4859E2	-1.4136E0
3.4905E2	-1.5133E0
3.495E2	-1.4491E0
3.4996E2	-1.2079E0
3.5041E2	-1.1129E0
3.5087E2	-1.1309E0
3.5132E2	-1.2844E0
3.5177E2	-1.2901E0
3.5223E2	-1.3134E0
3.5268E2	-1.4129E0
3.5314E2	-1.3595E0
3.5359E2	-1.4559E0
3.5405E2	-1.5252E0
3.545E2	-1.5842E0
3.5495E2	-1.5919E0
3.5541E2	-1.5596E0
3.5586E2	-1.5797E0
3.5632E2	-1.653E0
3.5677E2	-1.808E0
3.5722E2	-1.7892E0
3.5768E2	-1.847E0
3.5813E2	-1.9518E0
3.5859E2	-1.9268E0
3.5904E2	-1.8575E0
3.5949E2	-1.9339E0
3.5995E2	-1.8728E0
3.604E2	-1.7962E0
3.6085E2	-1.658E0
3.6131E2	-1.6818E0
3.6176E2	-1.5855E0
3.6221E2	-1.5462E0
3.6267E2	-1.4956E0
3.6312E2	-1.3856E0
3.6357E2	-1.2956E0
3.6403E2	-1.2769E0
3.6448E2	-1.157E0
3.6493E2	-1.2267E0
3.6539E2	-1.2323E0
3.6584E2	-1.1977E0
3.6629E2	-1.0685E0
3.6675E2	-97.635E-2
3.672E2	-89.433E-2
3.6765E2	-86.831E-2
3.681E2	-82.572E-2
3.6856E2	-92.082E-2
3.6901E2	-91.69E-2
3.6946E2	-98.064E-2
3.6991E2	-1.0592E0
3.7037E2	-1.1423E0
3.7082E2	-1.1538E0
3.7127E2	-1.2561E0
3.7172E2	-1.212E0
3.7218E2	-1.208E0
3.7263E2	-1.3457E0
3.7308E2	-1.4326E0
3.7353E2	-1.4172E0
3.7398E2	-1.5441E0
3.7444E2	-1.5446E0
3.7489E2	-1.4562E0
3.7534E2	-1.3971E0
3.7579E2	-1.4862E0
3.7624E2	-1.522E0
3.767E2	-1.5338E0
3.7715E2	-1.5179E0
3.776E2	-1.5976E0
3.7805E2	-1.5443E0
3.785E2	-1.5258E0
3.7896E2	-1.5245E0
3.7941E2	-1.5394E0
3.7986E2	-1.5865E0
3.8031E2	-1.5436E0
3.8076E2	-1.5182E0
3.8121E2	-1.5863E0
3.8166E2	-1.582E0
3.8211E2	-1.5245E0
3.8257E2	-1.4925E0
3.8302E2	-1.4603E0
3.8347E2	-1.3702E0
3.8392E2	-1.4066E0
3.8437E2	-1.480E0
3.8482E2	-1.5429E0
3.8527E2	-1.5786E0
3.8572E2	-1.6618E0
3.8617E2	-1.716E0
3.8662E2	-1.7333E0
3.8708E2	-1.7228E0
3.8753E2	-1.7806E0
3.8798E2	-1.7777E0
3.8843E2	-1.815E0
3.8888E2	-1.7511E0
3.8933E2	-1.7314E0
3.8978E2	-1.7512E0
3.9023E2	-1.7647E0
3.9068E2	-1.7628E0
3.9113E2	-1.7837E0
3.9158E2	-1.7907E0
3.9203E2	-1.7872E0
3.9248E2	-1.7987E0
3.9293E2	-1.8343E0
3.9338E2	-1.7948E0
3.9383E2	-1.746E0
3.9428E2	-1.7582E0
3.9473E2	-1.7767E0
3.9518E2	-1.7705E0
3.9563E2	-1.7429E0
3.9608E2	-1.7322E0
3.9653E2	-1.7301E0
3.9698E2	-1.7474E0
3.9743E2	-1.7697E0
3.9788E2	-1.7478E0
3.9833E2	-1.8025E0
3.9878E2	-1.806E0
3.9923E2	-1.8388E0
3.9968E2	-1.853E0
4.0013E2	-1.8488E0
4.0057E2	-1.8584E0
4.0102E2	-1.8353E0
4.0147E2	-1.8257E0
4.0192E2	-1.8067E0
4.0237E2	-1.8802E0
4.0282E2	-1.858E0
4.0327E2	-1.8904E0
4.0372E2	-1.872E0
4.0417E2	-1.8436E0
4.0462E2	-1.8279E0
4.0506E2	-1.7888E0
4.0551E2	-1.7481E0
4.0596E2	-1.7152E0
4.0641E2	-1.6713E0
4.0686E2	-1.6747E0
4.0731E2	-1.639E0
4.0776E2	-1.6231E0
4.082E2	-1.5766E0
4.0865E2	-1.5377E0
4.091E2	-1.5136E0
4.0955E2	-1.4482E0
4.100E2	-1.3817E0
4.1045E2	-1.3401E0
4.1089E2	-1.3433E0
4.1134E2	-1.3351E0
4.1179E2	-1.230E0
4.1224E2	-1.2083E0
4.1269E2	-1.1733E0
4.1313E2	-1.1201E0
4.1358E2	-1.0081E0
4.1403E2	-97.027E-2
4.1448E2	-93.452E-2
4.1493E2	-87.886E-2
4.1537E2	-83.592E-2
4.1582E2	-76.482E-2
4.1627E2	-67.003E-2
4.1672E2	-64.631E-2
4.1716E2	-58.65E-2
4.1761E2	-58.219E-2
4.1806E2	-49.004E-2
4.185E2	-44.563E-2
4.1895E2	-42.274E-2
4.194E2	-39.185E-2
4.1985E2	-37.238E-2
4.2029E2	-30.327E-2
4.2074E2	-27.35E-2
4.2119E2	-25.648E-2
4.2163E2	-24.107E-2
4.2208E2	-17.804E-2
4.2253E2	-17.21E-2
4.2298E2	-18.872E-2
4.2342E2	-13.279E-2
4.2387E2	-12.948E-2
4.2432E2	-11.614E-2
4.2476E2	-9.9861E-2
4.2521E2	-9.6957E-2
4.2566E2	-7.6624E-2
4.261E2	-1.8138E-2
4.2655E2	73.201E-4
4.2699E2	2.5961E-2
4.2744E2	56.576E-4
4.2789E2	5.1577E-2
4.2833E2	4.7508E-2
4.2878E2	10.777E-2
4.2923E2	16.104E-2
4.2967E2	17.973E-2
4.3012E2	23.176E-2
4.3056E2	27.849E-2
4.3101E2	31.993E-2
4.3146E2	36.64E-2
4.319E2	43.641E-2
4.3235E2	52.016E-2
4.3279E2	57.468E-2
4.3324E2	62.342E-2
4.3368E2	66.542E-2
4.3413E2	71.342E-2
4.3458E2	73.538E-2
4.3502E2	75.111E-2
4.3547E2	76.986E-2
4.3591E2	80.347E-2
4.3636E2	86.004E-2
4.368E2	93.546E-2
4.3725E2	94.741E-2
4.3769E2	1.0265E0
4.3814E2	1.0455E0
4.3858E2	1.0585E0
4.3903E2	1.0934E0
4.3947E2	1.1129E0
4.3992E2	1.1501E0
4.4036E2	1.1814E0
4.4081E2	1.1976E0
4.4125E2	1.2392E0
4.417E2	1.2221E0
4.4214E2	1.2315E0
4.4259E2	1.2544E0
4.4303E2	1.2315E0
4.4348E2	1.2462E0
4.4392E2	1.2849E0
4.4437E2	1.294E0
4.4481E2	1.2976E0
4.4525E2	1.3054E0
4.457E2	1.3129E0
4.4614E2	1.3153E0
4.4659E2	1.3469E0
4.4703E2	1.3479E0
4.4747E2	1.327E0
4.4792E2	1.3363E0
4.4836E2	1.3332E0
4.4881E2	1.338E0
4.4925E2	1.3344E0
4.4969E2	1.3493E0
4.5014E2	1.3404E0
4.5058E2	1.3261E0
4.5103E2	1.340E0
4.5147E2	1.3401E0
4.5191E2	1.3604E0
4.5236E2	1.4249E0
4.528E2	1.4328E0
4.5324E2	1.4722E0
4.5369E2	1.5216E0
4.5413E2	1.548E0
4.5457E2	1.581E0
4.5502E2	1.6323E0
4.5546E2	1.6534E0
4.559E2	1.6626E0
4.5635E2	1.6743E0
4.5679E2	1.7047E0
4.5723E2	1.7344E0
4.5768E2	1.7795E0
4.5812E2	1.8192E0
4.5856E2	1.838E0
4.590E2	1.8773E0
4.5945E2	1.9037E0
4.5989E2	1.9446E0
4.6033E2	1.992E0
4.6078E2	2.0322E0
4.6122E2	2.052E0
4.6166E2	2.0692E0
4.621E2	2.1135E0
4.6255E2	2.1125E0
4.6299E2	2.1184E0
4.6343E2	2.1401E0
4.6387E2	2.1693E0
4.6431E2	2.1718E0
4.6476E2	2.1825E0
4.652E2	2.2125E0
4.6564E2	2.2392E0
4.6608E2	2.2681E0
4.6653E2	2.2885E0
4.6697E2	2.2908E0
4.6741E2	2.2959E0
4.6785E2	2.3283E0
4.6829E2	2.3438E0
4.6873E2	2.3599E0
4.6918E2	2.3529E0
4.6962E2	2.349E0
4.7006E2	2.335E0
4.705E2	2.3309E0
4.7094E2	2.3186E0
4.7138E2	2.3045E0
4.7183E2	2.2984E0
4.7227E2	2.302E0
4.7271E2	2.2984E0
4.7315E2	2.2948E0
4.7359E2	2.288E0
4.7403E2	2.2954E0
4.7447E2	2.2756E0
4.7491E2	2.2712E0
4.7536E2	2.264E0
4.758E2	2.2362E0
4.7624E2	2.2358E0
4.7668E2	2.2499E0
4.7712E2	2.2501E0
4.7756E2	2.2421E0
4.780E2	2.247E0
4.7844E2	2.2573E0
4.7888E2	2.2725E0
4.7932E2	2.2836E0
4.7976E2	2.2995E0
4.802E2	2.3225E0
4.8064E2	2.3427E0
4.8108E2	2.3641E0
4.8152E2	2.385E0
4.8196E2	2.4038E0
4.824E2	2.4095E0
4.8284E2	2.4295E0
4.8328E2	2.4476E0
4.8372E2	2.4802E0
4.8416E2	2.5074E0
4.846E2	2.5081E0
4.8504E2	2.5351E0
4.8548E2	2.5558E0
4.8592E2	2.5766E0
4.8636E2	2.5905E0
4.868E2	2.6244E0
4.8724E2	2.6476E0
4.8768E2	2.671E0
4.8812E2	2.6942E0
4.8856E2	2.7242E0
4.890E2	2.7446E0
4.8944E2	2.7535E0
4.8988E2	2.7699E0
4.9032E2	2.798E0
4.9076E2	2.8195E0
4.912E2	2.836E0
4.9164E2	2.8731E0
4.9208E2	2.8906E0
4.9252E2	2.904E0
4.9295E2	2.9174E0
4.9339E2	2.9313E0
4.9383E2	2.9903E0
4.9427E2	3.0202E0
4.9471E2	3.0586E0
4.9515E2	3.0919E0
4.9559E2	3.1329E0
4.9603E2	3.1498E0
4.9647E2	3.1628E0
4.969E2	3.1808E0
4.9734E2	3.2054E0
4.9778E2	3.2287E0
4.9822E2	3.2435E0
4.9866E2	3.2779E0
4.991E2	3.3088E0
4.9953E2	3.3212E0
4.9997E2	3.3425E0
5.0041E2	3.3766E0
5.0085E2	3.3976E0
5.0129E2	3.4338E0
5.0172E2	3.4646E0
5.0216E2	3.4952E0
5.026E2	3.5345E0
5.0304E2	3.5369E0
5.0348E2	3.5611E0
5.0391E2	3.5575E0
5.0435E2	3.5613E0
5.0479E2	3.5785E0
5.0523E2	3.5922E0
5.0566E2	3.6196E0
5.061E2	3.6456E0
5.0654E2	3.6673E0
5.0698E2	3.6883E0
5.0741E2	3.7109E0
5.0785E2	3.7314E0
5.0829E2	3.7457E0
5.0873E2	3.7765E0
5.0916E2	3.792E0
5.096E2	3.7994E0
5.1004E2	3.814E0
5.1047E2	3.8354E0
5.1091E2	3.8527E0
5.1135E2	3.8699E0
5.1179E2	3.8688E0
5.1222E2	3.8817E0
5.1266E2	3.9043E0
5.131E2	3.9263E0
5.1353E2	3.9306E0
5.1397E2	3.9363E0
5.1441E2	3.9531E0
5.1484E2	3.9837E0
5.1528E2	3.9831E0
5.1572E2	3.9984E0
5.1615E2	4.0082E0
5.1659E2	4.0272E0
5.1702E2	4.0461E0
5.1746E2	4.0736E0
5.179E2	4.0742E0
5.1833E2	4.0956E0
5.1877E2	4.1076E0
5.192E2	4.1295E0
5.1964E2	4.1349E0
5.2008E2	4.1388E0
5.2051E2	4.1501E0
5.2095E2	4.1699E0
5.2138E2	4.1906E0
5.2182E2	4.2118E0
5.2226E2	4.2511E0
5.2269E2	4.2825E0
5.2313E2	4.320E0
5.2356E2	4.3583E0
5.240E2	4.3715E0
5.2443E2	4.4081E0
5.2487E2	4.4298E0
5.253E2	4.4553E0
5.2574E2	4.4893E0
5.2617E2	4.525E0
5.2661E2	4.5336E0
5.2704E2	4.5645E0
5.2748E2	4.5924E0
5.2791E2	4.6207E0
5.2835E2	4.6342E0
5.2878E2	4.6599E0
5.2922E2	4.6873E0
5.2965E2	4.7143E0
5.3009E2	4.7305E0
5.3052E2	4.7528E0
5.3096E2	4.7647E0
5.3139E2	4.7801E0
5.3183E2	4.8073E0
5.3226E2	4.8121E0
5.327E2	4.8107E0
5.3313E2	4.8227E0
5.3357E2	4.8324E0
5.340E2	4.8486E0
5.3443E2	4.8718E0
5.3487E2	4.8758E0
5.353E2	4.8848E0
5.3574E2	4.9036E0
5.3617E2	4.9227E0
5.366E2	4.9268E0
5.3704E2	4.9451E0
5.3747E2	4.9743E0
5.3791E2	4.9964E0
5.3834E2	5.0125E0
5.3877E2	5.0339E0
5.3921E2	5.0699E0
5.3964E2	5.084E0
5.4007E2	5.1055E0
5.4051E2	5.1029E0
5.4094E2	5.1094E0
5.4138E2	5.1214E0
5.4181E2	5.1406E0
5.4224E2	5.1543E0
5.4268E2	5.1734E0
5.4311E2	5.1846E0
5.4354E2	5.1872E0
5.4398E2	5.207E0
5.4441E2	5.2085E0
5.4484E2	5.2196E0
5.4527E2	5.2386E0
5.4571E2	5.2557E0
5.4614E2	5.2618E0
5.4657E2	5.2625E0
5.4701E2	5.2652E0
5.4744E2	5.2861E0
5.4787E2	5.2931E0
5.483E2	5.291E0
5.4874E2	5.3059E0
5.4917E2	5.3189E0
5.496E2	5.3405E0
5.5003E2	5.3617E0
5.5047E2	5.3852E0
5.509E2	5.4072E0
5.5133E2	5.4344E0
5.5176E2	5.4645E0
5.522E2	5.481E0
5.5263E2	5.5092E0
5.5306E2	5.5313E0
5.5349E2	5.5581E0
5.5392E2	5.5799E0
5.5436E2	5.6034E0
5.5479E2	5.6365E0
5.5522E2	5.660E0
5.5565E2	5.6938E0
5.5608E2	5.727E0
5.5651E2	5.7574E0
5.5695E2	5.791E0
5.5738E2	5.8188E0
5.5781E2	5.8583E0
5.5824E2	5.8934E0
5.5867E2	5.9328E0
5.591E2	5.9721E0
5.5954E2	5.9993E0
5.5997E2	6.0372E0
5.604E2	6.0597E0
5.6083E2	6.0916E0
5.6126E2	6.1345E0
5.6169E2	6.1613E0
5.6212E2	6.1972E0
5.6255E2	6.2345E0
5.6298E2	6.2825E0
5.6342E2	6.3113E0
5.6385E2	6.3396E0
5.6428E2	6.3886E0
5.6471E2	6.4278E0
5.6514E2	6.4597E0
5.6557E2	6.4897E0
5.660E2	6.5355E0
5.6643E2	6.5886E0
5.6686E2	6.6297E0
5.6729E2	6.6683E0
5.6772E2	6.7178E0
5.6815E2	6.7481E0
5.6858E2	6.7923E0
5.6901E2	6.8335E0
5.6944E2	6.8944E0
5.6987E2	6.9306E0
5.703E2	6.9768E0
5.7073E2	7.0245E0
5.7116E2	7.074E0
5.7159E2	7.123E0
5.7202E2	7.1642E0
5.7245E2	7.2164E0
5.7288E2	7.2697E0
5.7331E2	7.3198E0
5.7374E2	7.3628E0
5.7417E2	7.4121E0
5.746E2	7.4533E0
5.7503E2	7.4925E0
5.7546E2	7.5301E0
5.7589E2	7.571E0
5.7632E2	7.6133E0
5.7675E2	7.6385E0
5.7718E2	7.6847E0
5.7761E2	7.7328E0
5.7804E2	7.7787E0
5.7846E2	7.806E0
5.7889E2	7.8497E0
5.7932E2	7.894E0
5.7975E2	7.947E0
5.8018E2	7.9913E0
5.8061E2	8.0314E0
5.8104E2	8.0833E0
5.8147E2	8.1262E0
5.819E2	8.1691E0
5.8232E2	8.2106E0
5.8275E2	8.2386E0
5.8318E2	8.286E0
5.8361E2	8.3464E0
5.8404E2	8.3834E0
5.8447E2	8.4398E0
5.8489E2	8.4944E0
5.8532E2	8.5295E0
5.8575E2	8.5827E0
5.8618E2	8.6304E0
5.8661E2	8.6876E0
5.8704E2	8.737E0
5.8746E2	8.8063E0
5.8789E2	8.8691E0
5.8832E2	8.9015E0
5.8875E2	8.9367E0
5.8918E2	8.9738E0
5.896E2	9.0241E0
5.9003E2	9.0647E0
5.9046E2	9.0952E0
5.9089E2	9.1364E0
5.9131E2	9.1737E0
5.9174E2	9.2301E0
5.9217E2	9.2635E0
5.926E2	9.3016E0
5.9302E2	9.3502E0
5.9345E2	9.3757E0
5.9388E2	9.3954E0
5.9431E2	9.4393E0
5.9473E2	9.4835E0
5.9516E2	9.5219E0
5.9559E2	9.5484E0
5.9601E2	9.5747E0
5.9644E2	9.599E0
5.9687E2	9.6062E0
5.9729E2	9.6517E0
5.9772E2	9.6897E0
5.9815E2	9.7167E0
5.9858E2	9.7413E0
5.990E2	9.7658E0
5.9943E2	9.8029E0
5.9986E2	9.8277E0
6.0028E2	9.8524E0
6.0071E2	9.8779E0
6.0113E2	9.9062E0
6.0156E2	9.9296E0
6.0199E2	9.951E0
6.0241E2	9.9863E0
6.0284E2	10.014E0
6.0327E2	10.034E0
6.0369E2	10.038E0
6.0412E2	10.055E0
6.0454E2	10.072E0
6.0497E2	10.082E0
6.054E2	10.088E0
6.0582E2	10.114E0
6.0625E2	10.114E0
6.0667E2	10.121E0
6.071E2	10.15E0
6.0752E2	10.174E0
6.0795E2	10.194E0
6.0838E2	10.212E0
6.088E2	10.224E0
6.0923E2	10.247E0
6.0965E2	10.262E0
6.1008E2	10.285E0
6.105E2	10.295E0
6.1093E2	10.308E0
6.1135E2	10.324E0
6.1178E2	10.338E0
6.122E2	10.371E0
6.1263E2	10.406E0
6.1305E2	10.43E0
6.1348E2	10.453E0
6.139E2	10.485E0
6.1433E2	10.523E0
6.1475E2	10.565E0
6.1518E2	10.604E0
6.156E2	10.645E0
6.1603E2	10.665E0
6.1645E2	10.695E0
6.1688E2	10.721E0
6.173E2	10.751E0
6.1772E2	10.788E0
6.1815E2	10.815E0
6.1857E2	10.846E0
6.190E2	10.881E0
6.1942E2	10.916E0
6.1985E2	10.951E0
6.2027E2	10.974E0
6.2069E2	11.013E0
6.2112E2	11.022E0
6.2154E2	11.042E0
6.2197E2	11.058E0
6.2239E2	11.082E0
6.2281E2	11.097E0
6.2324E2	11.096E0
6.2366E2	11.096E0
6.2408E2	11.095E0
6.2451E2	11.103E0
6.2493E2	11.125E0
6.2536E2	11.122E0
6.2578E2	11.129E0
6.262E2	11.137E0
6.2663E2	11.131E0
6.2705E2	11.135E0
6.2747E2	11.143E0
6.2789E2	11.139E0
6.2832E2	11.137E0
6.2874E2	11.125E0
6.2916E2	11.112E0
6.2959E2	11.098E0
6.3001E2	11.094E0
6.3043E2	11.079E0
6.3086E2	11.077E0
6.3128E2	11.053E0
6.317E2	11.044E0
6.3212E2	11.045E0
6.3255E2	11.039E0
6.3297E2	11.046E0
6.3339E2	11.028E0
6.3381E2	11.009E0
6.3424E2	11.012E0
6.3466E2	10.999E0
6.3508E2	10.996E0
6.355E2	10.992E0
6.3593E2	10.991E0
6.3635E2	10.975E0
6.3677E2	10.967E0
6.3719E2	10.965E0
6.3761E2	10.966E0
6.3804E2	10.968E0
6.3846E2	10.966E0
6.3888E2	10.968E0
6.393E2	10.979E0
6.3972E2	10.975E0
6.4014E2	10.992E0
6.4057E2	11.00E0
6.4099E2	11.001E0
6.4141E2	11.00E0
6.4183E2	10.993E0
6.4225E2	11.02E0
6.4267E2	11.021E0
6.431E2	11.027E0
6.4352E2	11.041E0
6.4394E2	11.039E0
6.4436E2	11.059E0
6.4478E2	11.075E0
6.452E2	11.097E0
6.4562E2	11.102E0
6.4604E2	11.114E0
6.4646E2	11.127E0
6.4688E2	11.137E0
6.4731E2	11.16E0
6.4773E2	11.186E0
6.4815E2	11.192E0
6.4857E2	11.214E0
6.4899E2	11.24E0
6.4941E2	11.252E0
6.4983E2	11.272E0
6.5025E2	11.293E0
6.5067E2	11.326E0
6.5109E2	11.325E0
6.5151E2	11.36E0
6.5193E2	11.375E0
6.5235E2	11.383E0
6.5277E2	11.399E0
6.5319E2	11.41E0
6.5361E2	11.421E0
6.5403E2	11.427E0
6.5445E2	11.457E0
6.5487E2	11.468E0
6.5529E2	11.484E0
6.5571E2	11.51E0
6.5613E2	11.532E0
6.5655E2	11.545E0
6.5697E2	11.569E0
6.5739E2	11.594E0
6.5781E2	11.601E0
6.5823E2	11.625E0
6.5865E2	11.653E0
6.5907E2	11.675E0
6.5949E2	11.682E0
6.5991E2	11.71E0
6.6032E2	11.73E0
6.6074E2	11.759E0
6.6116E2	11.801E0
6.6158E2	11.828E0
6.620E2	11.853E0
6.6242E2	11.879E0
6.6284E2	11.911E0
6.6326E2	11.948E0
6.6368E2	11.976E0
6.641E2	12.014E0
6.6451E2	12.043E0
6.6493E2	12.068E0
6.6535E2	12.097E0
6.6577E2	12.127E0
6.6619E2	12.145E0
6.6661E2	12.181E0
6.6703E2	12.196E0
6.6744E2	12.218E0
6.6786E2	12.242E0
6.6828E2	12.287E0
6.687E2	12.308E0
6.6912E2	12.326E0
6.6953E2	12.352E0
6.6995E2	12.364E0
6.7037E2	12.388E0
6.7079E2	12.42E0
6.7121E2	12.437E0
6.7162E2	12.46E0
6.7204E2	12.472E0
6.7246E2	12.494E0
6.7288E2	12.506E0
6.7329E2	12.518E0
6.7371E2	12.535E0
6.7413E2	12.546E0
6.7455E2	12.573E0
6.7496E2	12.595E0
6.7538E2	12.604E0
6.758E2	12.636E0
6.7622E2	12.644E0
6.7663E2	12.662E0
6.7705E2	12.657E0
6.7747E2	12.679E0
6.7788E2	12.697E0
6.783E2	12.704E0
6.7872E2	12.716E0
6.7914E2	12.728E0
6.7955E2	12.732E0
6.7997E2	12.739E0
6.8039E2	12.741E0
6.808E2	12.744E0
6.8122E2	12.742E0
6.8164E2	12.756E0
6.8205E2	12.769E0
6.8247E2	12.779E0
6.8288E2	12.793E0
6.833E2	12.783E0
6.8372E2	12.783E0
6.8413E2	12.784E0
6.8455E2	12.781E0
6.8497E2	12.792E0
6.8538E2	12.80E0
6.858E2	12.819E0
6.8621E2	12.821E0
6.8663E2	12.822E0
6.8705E2	12.821E0
6.8746E2	12.826E0
6.8788E2	12.822E0
6.8829E2	12.824E0
6.8871E2	12.838E0
6.8912E2	12.854E0
6.8954E2	12.853E0
6.8996E2	12.864E0
6.9037E2	12.87E0
6.9079E2	12.873E0
6.912E2	12.875E0
6.9162E2	12.878E0
6.9203E2	12.887E0
6.9245E2	12.884E0
6.9286E2	12.896E0
6.9328E2	12.914E0
6.9369E2	12.926E0
6.9411E2	12.933E0
6.9452E2	12.926E0
6.9494E2	12.932E0
6.9535E2	12.935E0
6.9577E2	12.93E0
6.9618E2	12.928E0
6.966E2	12.934E0
6.9701E2	12.931E0
6.9743E2	12.917E0
6.9784E2	12.906E0
6.9825E2	12.895E0
6.9867E2	12.892E0
6.9908E2	12.873E0
6.995E2	12.874E0
6.9991E2	12.855E0
7.0033E2	12.832E0
7.0074E2	12.834E0
7.0115E2	12.83E0
7.0157E2	12.822E0
7.0198E2	12.797E0
7.024E2	12.76E0
7.0281E2	12.743E0
7.0322E2	12.734E0
7.0364E2	12.712E0
7.0405E2	12.692E0
7.0447E2	12.683E0
7.0488E2	12.671E0
7.0529E2	12.649E0
7.0571E2	12.64E0
7.0612E2	12.634E0
7.0653E2	12.622E0
7.0695E2	12.62E0
7.0736E2	12.608E0
7.0777E2	12.592E0
7.0819E2	12.568E0
7.086E2	12.566E0
7.0901E2	12.558E0
7.0942E2	12.53E0
7.0984E2	12.523E0
7.1025E2	12.503E0
7.1066E2	12.494E0
7.1108E2	12.511E0
7.1149E2	12.494E0
7.119E2	12.473E0
7.1231E2	12.472E0
7.1273E2	12.456E0
7.1314E2	12.439E0
7.1355E2	12.427E0
7.1397E2	12.42E0
7.1438E2	12.388E0
7.1479E2	12.375E0
7.152E2	12.359E0
7.1561E2	12.345E0
7.1603E2	12.336E0
7.1644E2	12.323E0
7.1685E2	12.30E0
7.1726E2	12.278E0
7.1767E2	12.26E0
7.1809E2	12.251E0
7.185E2	12.238E0
7.1891E2	12.23E0
7.1932E2	12.214E0
7.1973E2	12.21E0
7.2015E2	12.193E0
7.2056E2	12.185E0
7.2097E2	12.17E0
7.2138E2	12.164E0
7.2179E2	12.155E0
7.222E2	12.134E0
7.2261E2	12.114E0
7.2303E2	12.114E0
7.2344E2	12.099E0
7.2385E2	12.085E0
7.2426E2	12.067E0
7.2467E2	12.056E0
7.2508E2	12.047E0
7.2549E2	12.049E0
7.259E2	12.043E0
7.2631E2	12.044E0
7.2673E2	12.05E0
7.2714E2	12.046E0
7.2755E2	12.022E0
7.2796E2	12.016E0
7.2837E2	11.995E0
7.2878E2	11.995E0
7.2919E2	12.008E0
7.296E2	11.997E0
7.3001E2	11.992E0
7.3042E2	11.986E0
7.3083E2	12.00E0
7.3124E2	12.011E0
7.3165E2	12.012E0
7.3206E2	12.013E0
7.3247E2	12.021E0
7.3288E2	12.031E0
7.3329E2	12.035E0
7.337E2	12.037E0
7.3411E2	12.055E0
7.3452E2	12.068E0
7.3493E2	12.076E0
7.3534E2	12.07E0
7.3575E2	12.064E0
7.3616E2	12.086E0
7.3657E2	12.088E0
7.3698E2	12.087E0
7.3739E2	12.085E0
7.378E2	12.061E0
7.3821E2	12.066E0
7.3862E2	12.078E0
7.3903E2	12.083E0
7.3944E2	12.082E0
7.3984E2	12.089E0
7.4025E2	12.093E0
7.4066E2	12.105E0
7.4107E2	12.113E0
7.4148E2	12.12E0
7.4189E2	12.105E0
7.423E2	12.115E0
7.4271E2	12.102E0
7.4312E2	12.087E0
7.4352E2	12.08E0
7.4393E2	12.069E0
7.4434E2	12.067E0
7.4475E2	12.049E0
7.4516E2	12.053E0
7.4557E2	12.049E0
7.4598E2	12.057E0
7.4638E2	12.059E0
7.4679E2	12.053E0
7.472E2	12.034E0
7.4761E2	12.029E0
7.4802E2	12.019E0
7.4842E2	12.017E0
7.4883E2	12.023E0
7.4924E2	12.012E0
7.4965E2	11.996E0
7.5006E2	11.974E0
7.5046E2	11.983E0
7.5087E2	11.986E0
7.5128E2	11.985E0
7.5169E2	11.982E0
7.5209E2	12.001E0
7.525E2	11.991E0
7.5291E2	11.99E0
7.5332E2	11.997E0
7.5372E2	11.99E0
7.5413E2	11.986E0
7.5454E2	11.977E0
7.5495E2	11.991E0
7.5535E2	11.977E0
7.5576E2	11.989E0
7.5617E2	11.981E0
7.5657E2	11.979E0
7.5698E2	11.966E0
7.5739E2	11.946E0
7.5779E2	11.946E0
7.582E2	11.951E0
7.5861E2	11.955E0
7.5901E2	11.951E0
7.5942E2	11.943E0
7.5983E2	11.933E0
7.6023E2	11.948E0
7.6064E2	11.931E0
7.6105E2	11.943E0
7.6145E2	11.938E0
7.6186E2	11.937E0
7.6227E2	11.93E0
7.6267E2	11.92E0
7.6308E2	11.923E0
7.6348E2	11.901E0
7.6389E2	11.914E0
7.643E2	11.91E0
7.647E2	11.924E0
7.6511E2	11.918E0
7.6551E2	11.906E0
7.6592E2	11.908E0
7.6632E2	11.914E0
7.6673E2	11.889E0
7.6714E2	11.896E0
7.6754E2	11.901E0
7.6795E2	11.909E0
7.6835E2	11.913E0
7.6876E2	11.891E0
7.6916E2	11.876E0
7.6957E2	11.886E0
7.6997E2	11.903E0
7.7038E2	11.881E0
7.7078E2	11.868E0
7.7119E2	11.876E0
7.7159E2	11.862E0
7.720E2	11.882E0
7.724E2	11.881E0
7.7281E2	11.861E0
7.7321E2	11.85E0
7.7362E2	11.859E0
7.7402E2	11.862E0
7.7443E2	11.858E0
7.7483E2	11.83E0
7.7524E2	11.841E0
7.7564E2	11.841E0
7.7605E2	11.827E0
7.7645E2	11.801E0
7.7685E2	11.798E0
7.7726E2	11.778E0
7.7766E2	11.764E0
7.7807E2	11.727E0
7.7847E2	11.703E0
7.7888E2	11.716E0
7.7928E2	11.738E0
7.7968E2	11.741E0
7.8009E2	11.743E0
7.8049E2	11.73E0
7.8089E2	11.716E0
7.813E2	11.714E0
7.817E2	11.698E0
7.8211E2	11.678E0
7.8251E2	11.665E0
7.8291E2	11.653E0
7.8332E2	11.651E0
7.8372E2	11.638E0
7.8412E2	11.615E0
7.8453E2	11.597E0
7.8493E2	11.589E0
7.8533E2	11.559E0
7.8574E2	11.559E0
7.8614E2	11.568E0
7.8654E2	11.585E0
7.8694E2	11.583E0
7.8735E2	11.567E0
7.8775E2	11.526E0
7.8815E2	11.501E0
7.8856E2	11.49E0
7.8896E2	11.472E0
7.8936E2	11.459E0
7.8976E2	11.439E0
7.9017E2	11.432E0
7.9057E2	11.435E0
7.9097E2	11.431E0
7.9137E2	11.436E0
7.9178E2	11.437E0
7.9218E2	11.418E0
7.9258E2	11.408E0
7.9298E2	11.391E0
7.9338E2	11.376E0
7.9379E2	11.373E0
7.9419E2	11.381E0
7.9459E2	11.369E0
7.9499E2	11.364E0
7.9539E2	11.342E0
7.958E2	11.321E0
7.962E2	11.312E0
7.966E2	11.318E0
7.970E2	11.305E0
7.974E2	11.279E0
7.978E2	11.275E0
7.9821E2	11.283E0
7.9861E2	11.269E0
7.9901E2	11.255E0
7.9941E2	11.258E0
7.9981E2	11.243E0
8.0021E2	11.213E0
8.0061E2	11.213E0
8.0101E2	11.201E0
8.0142E2	11.197E0
8.0182E2	11.181E0
8.0222E2	11.179E0
8.0262E2	11.163E0
8.0302E2	11.132E0
8.0342E2	11.106E0
8.0382E2	11.097E0
8.0422E2	11.102E0
8.0462E2	11.108E0
8.0502E2	11.096E0
8.0542E2	11.075E0
8.0582E2	11.08E0
8.0622E2	11.077E0
8.0662E2	11.056E0
8.0702E2	11.058E0
8.0743E2	11.039E0
8.0783E2	11.019E0
8.0823E2	11.003E0
8.0863E2	10.992E0
8.0903E2	10.998E0
8.0943E2	10.985E0
8.0983E2	10.971E0
8.1023E2	10.959E0
8.1063E2	10.94E0
8.1102E2	10.93E0
8.1142E2	10.935E0
8.1182E2	10.934E0
8.1222E2	10.927E0
8.1262E2	10.904E0
8.1302E2	10.876E0
8.1342E2	10.869E0
8.1382E2	10.868E0
8.1422E2	10.864E0
8.1462E2	10.84E0
8.1502E2	10.828E0
8.1542E2	10.806E0
8.1582E2	10.788E0
8.1622E2	10.781E0
8.1662E2	10.758E0
8.1701E2	10.772E0
8.1741E2	10.743E0
8.1781E2	10.741E0
8.1821E2	10.713E0
8.1861E2	10.74E0
8.1901E2	10.76E0
8.1941E2	10.755E0
8.1981E2	10.758E0
8.202E2	10.751E0
8.206E2	10.761E0
8.210E2	10.783E0
8.214E2	10.796E0
8.218E2	10.783E0
8.222E2	10.765E0
8.2259E2	10.768E0
8.2299E2	10.768E0
8.2339E2	10.778E0
8.2379E2	10.772E0
8.2419E2	10.766E0
8.2458E2	10.772E0
8.2498E2	10.77E0
8.2538E2	10.757E0
8.2578E2	10.75E0
8.2618E2	10.724E0
8.2657E2	10.735E0
8.2697E2	10.695E0
8.2737E2	10.658E0
8.2777E2	10.624E0
8.2816E2	10.621E0
8.2856E2	10.60E0
8.2896E2	10.574E0
8.2936E2	10.539E0
8.2975E2	10.522E0
8.3015E2	10.504E0
8.3055E2	10.523E0
8.3094E2	10.498E0
8.3134E2	10.485E0
8.3174E2	10.473E0
8.3213E2	10.457E0
8.3253E2	10.44E0
8.3293E2	10.405E0
8.3333E2	10.41E0
8.3372E2	10.388E0
8.3412E2	10.393E0
8.3451E2	10.415E0
8.3491E2	10.41E0
8.3531E2	10.411E0
8.357E2	10.394E0
8.361E2	10.388E0
8.365E2	10.36E0
8.3689E2	10.342E0
8.3729E2	10.334E0
8.3769E2	10.33E0
8.3808E2	10.318E0
8.3848E2	10.304E0
8.3887E2	10.272E0
8.3927E2	10.254E0
8.3967E2	10.227E0
8.4006E2	10.171E0
8.4046E2	10.169E0
8.4085E2	10.155E0
8.4125E2	10.159E0
8.4164E2	10.134E0
8.4204E2	10.126E0
8.4243E2	10.104E0
8.4283E2	10.064E0
8.4323E2	10.048E0
8.4362E2	10.033E0
8.4402E2	10.022E0
8.4441E2	10.021E0
8.4481E2	10.019E0
8.452E2	10.014E0
8.456E2	9.9931E0
8.4599E2	9.9606E0
8.4639E2	9.9491E0
8.4678E2	9.9345E0
8.4718E2	9.9308E0
8.4757E2	9.9102E0
8.4797E2	9.9193E0
8.4836E2	9.9294E0
8.4876E2	9.9186E0
8.4915E2	9.9299E0
8.4954E2	9.912E0
8.4994E2	9.9039E0
8.5033E2	9.8704E0
8.5073E2	9.8566E0
8.5112E2	9.8315E0
8.5152E2	9.8101E0
8.5191E2	9.7829E0
8.523E2	9.7882E0
8.527E2	9.7644E0
8.5309E2	9.7547E0
8.5349E2	9.7304E0
8.5388E2	9.7277E0
8.5427E2	9.7308E0
8.5467E2	9.7011E0
8.5506E2	9.7112E0
8.5546E2	9.6982E0
8.5585E2	9.7298E0
8.5624E2	9.706E0
8.5664E2	9.7285E0
8.5703E2	9.7198E0
8.5742E2	9.7117E0
8.5782E2	9.7037E0
8.5821E2	9.683E0
8.586E2	9.6774E0
8.590E2	9.6687E0
8.5939E2	9.6864E0
8.5978E2	9.6681E0
8.6018E2	9.6838E0
8.6057E2	9.6663E0
8.6096E2	9.6788E0
8.6135E2	9.6389E0
8.6175E2	9.6515E0
8.6214E2	9.6043E0
8.6253E2	9.5943E0
8.6293E2	9.5961E0
8.6332E2	9.5711E0
8.6371E2	9.5591E0
8.641E2	9.526E0
8.645E2	9.507E0
8.6489E2	9.4869E0
8.6528E2	9.4703E0
8.6567E2	9.4403E0
8.6606E2	9.4226E0
8.6646E2	9.4158E0
8.6685E2	9.4225E0
8.6724E2	9.4211E0
8.6763E2	9.3986E0
8.6802E2	9.4124E0
8.6842E2	9.3794E0
8.6881E2	9.3562E0
8.692E2	9.3209E0
8.6959E2	9.3465E0
8.6998E2	9.3425E0
8.7038E2	9.3472E0
8.7077E2	9.3644E0
8.7116E2	9.3541E0
8.7155E2	9.3444E0
8.7194E2	9.3312E0
8.7233E2	9.3143E0
8.7272E2	9.3446E0
8.7311E2	9.3186E0
8.7351E2	9.323E0
8.739E2	9.3071E0
8.7429E2	9.3131E0
8.7468E2	9.3187E0
8.7507E2	9.3001E0
8.7546E2	9.3005E0
8.7585E2	9.3162E0
8.7624E2	9.3224E0
8.7663E2	9.3356E0
8.7702E2	9.3523E0
8.7741E2	9.3904E0
8.7781E2	9.3915E0
8.782E2	9.3507E0
8.7859E2	9.3557E0
8.7898E2	9.3342E0
8.7937E2	9.3509E0
8.7976E2	9.3925E0
8.8015E2	9.3992E0
8.8054E2	9.4334E0
8.8093E2	9.4053E0
8.8132E2	9.4186E0
8.8171E2	9.4392E0
8.821E2	9.4303E0
8.8249E2	9.4374E0
8.8288E2	9.4282E0
8.8327E2	9.4534E0
8.8366E2	9.4622E0
8.8405E2	9.4574E0
8.8444E2	9.4206E0
8.8483E2	9.4147E0
8.8522E2	9.3802E0
8.8561E2	9.3802E0
8.8599E2	9.3473E0
8.8638E2	9.3431E0
8.8677E2	9.345E0
8.8716E2	9.3219E0
8.8755E2	9.2777E0
8.8794E2	9.2083E0
8.8833E2	9.2167E0
8.8872E2	9.1438E0
8.8911E2	9.1447E0
8.895E2	9.1223E0
8.8989E2	9.0638E0
8.9028E2	9.1004E0
8.9066E2	9.062E0
8.9105E2	9.0743E0
8.9144E2	9.048E0
8.9183E2	9.0135E0
8.9222E2	8.9751E0
8.9261E2	8.9874E0
8.930E2	8.9793E0
8.9338E2	9.0184E0
8.9377E2	8.9848E0
8.9416E2	9.0005E0
8.9455E2	9.0262E0
8.9494E2	9.0215E0
8.9532E2	9.0154E0
8.9571E2	9.0446E0
8.961E2	9.0351E0
8.9649E2	9.0052E0
8.9688E2	9.0192E0
8.9726E2	9.005E0
8.9765E2	9.034E0
8.9804E2	9.0308E0
8.9843E2	9.0055E0
8.9882E2	8.9843E0
8.992E2	8.9715E0
8.9959E2	8.9808E0
8.9998E2	8.9542E0
9.0037E2	8.9797E0
9.0075E2	8.9756E0
9.0114E2	8.9338E0
9.0153E2	8.9189E0
9.0191E2	8.8773E0
9.023E2	8.8399E0
9.0269E2	8.8377E0
9.0308E2	8.8277E0
9.0346E2	8.8219E0
9.0385E2	8.8521E0
9.0424E2	8.8381E0
9.0462E2	8.8577E0
9.0501E2	8.8599E0
9.054E2	8.8502E0
9.0578E2	8.8215E0
9.0617E2	8.8355E0
9.0656E2	8.8217E0
9.0694E2	8.8343E0
9.0733E2	8.7767E0
9.0772E2	8.7446E0
9.081E2	8.7719E0
9.0849E2	8.7596E0
9.0887E2	8.7702E0
9.0926E2	8.822E0
9.0965E2	8.7771E0
9.1003E2	8.7913E0
9.1042E2	8.7935E0
9.108E2	8.7478E0
9.1119E2	8.744E0
9.1158E2	8.7573E0
9.1196E2	8.6848E0
9.1235E2	8.6993E0
9.1273E2	8.6484E0
9.1312E2	8.6016E0
9.135E2	8.5883E0
9.1389E2	8.578E0
9.1427E2	8.5689E0
9.1466E2	8.5914E0
9.1505E2	8.6061E0
9.1543E2	8.6571E0
9.1582E2	8.6652E0
9.162E2	8.6394E0
9.1659E2	8.6196E0
9.1697E2	8.6062E0
9.1736E2	8.6121E0
9.1774E2	8.6113E0
9.1813E2	8.6515E0
9.1851E2	8.6447E0
9.189E2	8.6375E0
9.1928E2	8.6116E0
9.1966E2	8.5848E0
9.2005E2	8.6113E0
9.2043E2	8.5931E0
9.2082E2	8.5739E0
9.212E2	8.6348E0
9.2159E2	8.6602E0
9.2197E2	8.6758E0
9.2236E2	8.6714E0
9.2274E2	8.6486E0
9.2312E2	8.6371E0
9.2351E2	8.6051E0
9.2389E2	8.5861E0
9.2428E2	8.5956E0
9.2466E2	8.5987E0
9.2504E2	8.5667E0
9.2543E2	8.5318E0
9.2581E2	8.5317E0
9.2619E2	8.5142E0
9.2658E2	8.5029E0
9.2696E2	8.5465E0
9.2735E2	8.518E0
9.2773E2	8.524E0
9.2811E2	8.4909E0
9.285E2	8.477E0
9.2888E2	8.551E0
9.2926E2	8.4651E0
9.2965E2	8.4461E0
9.3003E2	8.3754E0
9.3041E2	8.3705E0
9.3079E2	8.3929E0
9.3118E2	8.3591E0
9.3156E2	8.3486E0
9.3194E2	8.3641E0
9.3233E2	8.4047E0
9.3271E2	8.3892E0
9.3309E2	8.4046E0
9.3347E2	8.4135E0
9.3386E2	8.3934E0
9.3424E2	8.2993E0
9.3462E2	8.3605E0
9.350E2	8.3086E0
9.3539E2	8.3218E0
9.3577E2	8.3697E0
9.3615E2	8.3624E0
9.3653E2	8.4029E0
9.3692E2	8.2964E0
9.373E2	8.3452E0
9.3768E2	8.3023E0
9.3806E2	8.3492E0
9.3844E2	8.3475E0
9.3883E2	8.2905E0
9.3921E2	8.2788E0
9.3959E2	8.2418E0
9.3997E2	8.1812E0
9.4035E2	8.0473E0
9.4073E2	8.0529E0
9.4112E2	8.0716E0
9.415E2	8.0451E0
9.4188E2	8.0998E0
9.4226E2	8.1744E0
9.4264E2	8.0822E0
9.4302E2	8.0352E0
9.434E2	8.0745E0
9.4378E2	8.0155E0
9.4417E2	8.0265E0
9.4455E2	7.9577E0
9.4493E2	7.9104E0
9.4531E2	7.9245E0
9.4569E2	7.9372E0
9.4607E2	7.832E0
9.4645E2	7.8627E0
9.4683E2	7.8075E0
9.4721E2	7.8538E0
9.4759E2	7.9291E0
9.4797E2	7.9715E0
9.4835E2	7.9513E0
9.4873E2	7.9984E0
9.4912E2	7.9446E0
9.495E2	7.9095E0
9.4988E2	7.9115E0
9.5026E2	7.8404E0
9.5064E2	7.866E0
9.5102E2	7.8842E0
9.514E2	7.9274E0
9.5178E2	7.9263E0
9.5216E2	7.9089E0
9.5254E2	7.9189E0
9.5292E2	8.0096E0
9.533E2	7.9706E0
9.5367E2	8.0172E0
9.5405E2	8.1475E0
9.5443E2	8.0398E0
9.5481E2	8.1127E0
9.5519E2	8.1127E0
9.5557E2	8.0683E0
9.5595E2	8.1425E0
9.5633E2	8.1218E0
9.5671E2	8.1209E0
9.5709E2	8.1042E0
9.5747E2	8.1525E0
9.5785E2	8.1423E0
9.5823E2	8.169E0
9.5861E2	8.0777E0
9.5898E2	8.0261E0
9.5936E2	7.9268E0
9.5974E2	7.8914E0
9.6012E2	7.9239E0
9.605E2	7.9073E0
9.6088E2	7.8657E0
9.6126E2	7.8433E0
9.6164E2	7.7232E0
9.6201E2	7.6414E0
9.6239E2	7.7888E0
9.6277E2	7.8022E0
9.6315E2	7.787E0
9.6353E2	7.7006E0
9.6391E2	7.6072E0
9.6428E2	7.6329E0
9.6466E2	7.560E0
9.6504E2	7.6064E0
9.6542E2	7.5409E0
9.658E2	7.482E0
9.6617E2	7.4499E0
9.6655E2	7.5196E0
9.6693E2	7.5833E0
9.6731E2	7.6033E0
9.6768E2	7.5461E0
9.6806E2	7.4403E0
9.6844E2	7.5337E0
9.6882E2	7.4778E0
9.6919E2	7.5631E0
9.6957E2	7.6967E0
9.6995E2	7.7299E0
9.7033E2	7.6282E0
9.707E2	7.554E0
9.7108E2	7.5686E0
9.7146E2	7.6832E0
9.7183E2	7.6868E0
9.7221E2	7.7217E0
9.7259E2	7.7543E0
9.7297E2	7.7181E0
9.7334E2	7.7732E0
9.7372E2	7.825E0
9.741E2	7.8805E0
9.7447E2	7.7637E0
9.7485E2	7.7614E0
9.7522E2	7.7537E0
9.756E2	7.8121E0
9.7598E2	7.9215E0
9.7635E2	7.8339E0
9.7673E2	7.8406E0
9.7711E2	7.7267E0
9.7748E2	7.5905E0
9.7786E2	7.4969E0
9.7823E2	7.484E0
9.7861E2	7.5564E0
9.7899E2	7.5073E0
9.7936E2	7.4046E0
9.7974E2	7.3979E0
9.8011E2	7.387E0
9.8049E2	7.3226E0
9.8087E2	7.318E0
9.8124E2	7.2823E0
9.8162E2	7.2718E0
9.8199E2	7.1688E0
9.8237E2	7.2875E0
9.8274E2	7.3233E0
9.8312E2	7.3223E0
9.8349E2	7.2928E0
9.8387E2	7.197E0
9.8424E2	7.2106E0
9.8462E2	7.2778E0
9.8499E2	7.3239E0
9.8537E2	7.2914E0
9.8574E2	7.3071E0
9.8612E2	7.3379E0
9.8649E2	7.2097E0
9.8687E2	7.1166E0
9.8724E2	7.1648E0
9.8762E2	7.1542E0
9.8799E2	7.1986E0
9.8837E2	7.2719E0
9.8874E2	7.2551E0
9.8912E2	7.246E0
9.8949E2	7.1797E0
9.8986E2	7.2956E0
9.9024E2	7.3163E0
9.9061E2	7.2142E0
9.9099E2	7.2913E0
9.9136E2	7.3524E0
9.9174E2	7.3661E0
9.9211E2	7.382E0
9.9248E2	7.3663E0
9.9286E2	7.3716E0
9.9323E2	7.5059E0
9.936E2	7.628E0
9.9398E2	7.5412E0
9.9435E2	7.5109E0
9.9473E2	7.5815E0
9.951E2	7.6529E0
9.9547E2	7.6573E0
9.9585E2	7.6083E0
9.9622E2	7.4795E0
9.9659E2	7.3862E0
9.9697E2	7.2642E0
9.9734E2	7.384E0
9.9771E2	7.3537E0
9.9809E2	7.2445E0
9.9846E2	7.2149E0
9.9883E2	7.2678E0
9.992E2	7.2292E0
9.9958E2	7.1191E0
9.9995E2	7.0064E0
10.003E2	7.0983E0
10.007E2	7.0228E0
10.011E2	6.9688E0
10.014E2	6.8024E0
10.019E2	9.8406E0
10.043E2	10.135E0
10.068E2	10.247E0
10.092E2	10.046E0
10.117E2	10.319E0
10.141E2	10.04E0
10.166E2	10.145E0
10.19E2	10.089E0
10.214E2	10.103E0
10.239E2	10.137E0
10.263E2	10.021E0
10.288E2	9.6967E0
10.312E2	9.710E0
10.336E2	9.719E0
10.361E2	9.457E0
10.385E2	9.7102E0
10.41E2	9.8422E0
10.434E2	9.7529E0
10.458E2	9.7358E0
10.483E2	9.7644E0
10.507E2	9.8423E0
10.532E2	9.7412E0
10.556E2	9.7504E0
10.58E2	9.6229E0
10.605E2	9.688E0
10.629E2	9.8182E0
10.653E2	9.826E0
10.678E2	9.8171E0
10.702E2	9.7132E0
10.726E2	9.6222E0
10.751E2	9.600E0
10.775E2	9.5252E0
10.799E2	9.7083E0
10.824E2	9.5734E0
10.848E2	9.5698E0
10.872E2	9.706E0
10.897E2	9.5284E0
10.921E2	9.5527E0
10.945E2	9.4845E0
10.97E2	9.4898E0
10.994E2	9.3527E0
11.018E2	9.2926E0
11.043E2	9.3371E0
11.067E2	9.2865E0
11.091E2	9.2338E0
11.116E2	9.1049E0
11.14E2	9.051E0
11.164E2	8.9572E0
11.188E2	8.974E0
11.213E2	8.8713E0
11.237E2	8.7569E0
11.261E2	8.7423E0
11.286E2	8.827E0
11.31E2	8.7061E0
11.334E2	8.7612E0
11.358E2	8.6571E0
11.383E2	8.6464E0
11.407E2	8.5862E0
11.431E2	8.5083E0
11.455E2	8.5524E0
11.48E2	8.5755E0
11.504E2	8.5254E0
11.528E2	8.5337E0
11.552E2	8.5051E0
11.577E2	8.4382E0
11.601E2	8.4425E0
11.625E2	8.4835E0
11.649E2	8.4954E0
11.674E2	8.5306E0
11.698E2	8.4105E0
11.722E2	8.5722E0
11.746E2	8.5436E0
11.771E2	8.585E0
11.795E2	8.5832E0
11.819E2	8.5269E0
11.843E2	8.5248E0
11.867E2	8.5781E0
11.892E2	8.5262E0
11.916E2	8.4587E0
11.94E2	8.4416E0
11.964E2	8.4018E0
11.988E2	8.4479E0
12.013E2	8.4641E0
12.037E2	8.5405E0
12.061E2	8.4443E0
12.085E2	8.5063E0
12.109E2	8.4964E0
12.134E2	8.594E0
12.158E2	8.5511E0
12.182E2	8.6612E0
12.206E2	8.700E0
12.23E2	8.611E0
12.254E2	8.6731E0
12.279E2	8.659E0
12.303E2	8.6172E0
12.327E2	8.6817E0
12.351E2	8.6738E0
12.375E2	8.6637E0
12.399E2	8.6793E0
12.424E2	8.7428E0
12.448E2	8.7563E0
12.472E2	8.8104E0
12.496E2	8.7127E0
12.52E2	8.7716E0
12.544E2	8.7281E0
12.568E2	8.823E0
12.593E2	8.8584E0
12.617E2	8.8475E0
12.641E2	8.8108E0
12.665E2	8.8523E0
12.689E2	8.789E0
12.713E2	8.7908E0
12.737E2	8.7866E0
12.761E2	8.8008E0
12.786E2	8.7704E0
12.81E2	8.775E0
12.834E2	8.7909E0
12.858E2	8.7375E0
12.882E2	8.8213E0
12.906E2	8.8269E0
12.93E2	8.8997E0
12.954E2	8.9344E0
12.978E2	8.9438E0
13.002E2	8.9593E0
13.027E2	8.9639E0
13.051E2	8.9916E0
13.075E2	8.9759E0
13.099E2	8.9428E0
13.123E2	8.962E0
13.147E2	8.9804E0
13.171E2	8.974E0
13.195E2	9.0118E0
13.219E2	9.0247E0
13.243E2	9.0751E0
13.267E2	9.0502E0
13.291E2	9.0713E0
13.315E2	9.0667E0
13.339E2	9.0717E0
13.363E2	9.1342E0
13.388E2	9.0566E0
13.412E2	9.1037E0
13.436E2	9.0575E0
13.46E2	9.0957E0
13.484E2	9.0389E0
13.508E2	9.0789E0
13.532E2	9.0609E0
13.556E2	9.0349E0
13.58E2	9.0323E0
13.604E2	9.0587E0
13.628E2	9.0237E0
13.652E2	8.9833E0
13.676E2	8.8976E0
13.70E2	8.8847E0
13.724E2	8.832E0
13.748E2	8.7219E0
13.772E2	8.673E0
13.796E2	8.6017E0
13.82E2	8.5451E0
13.844E2	8.4576E0
13.868E2	8.3751E0
13.892E2	8.2979E0
13.916E2	8.2101E0
13.94E2	8.1164E0
13.964E2	7.971E0
13.988E2	7.9301E0
14.012E2	7.7974E0
14.036E2	7.7183E0
14.06E2	7.566E0
14.084E2	7.4797E0
14.108E2	7.3294E0
14.132E2	7.2475E0
14.156E2	7.1437E0
14.18E2	7.1177E0
14.204E2	7.0035E0
14.228E2	6.9459E0
14.252E2	6.8974E0
14.276E2	6.8456E0
14.30E2	6.7815E0
14.324E2	6.7594E0
14.348E2	6.7132E0
14.372E2	6.6779E0
14.396E2	6.6145E0
14.42E2	6.5986E0
14.444E2	6.5303E0
14.468E2	6.5423E0
14.492E2	6.4679E0
14.515E2	6.4591E0
14.539E2	6.3979E0
14.563E2	6.4233E0
14.587E2	6.4045E0
14.611E2	6.4097E0
14.635E2	6.3978E0
14.659E2	6.3961E0
14.683E2	6.4111E0
14.707E2	6.4301E0
14.731E2	6.4519E0
14.755E2	6.4588E0
14.779E2	6.5371E0
14.803E2	6.5602E0
14.827E2	6.6113E0
14.851E2	6.6169E0
14.874E2	6.6606E0
14.898E2	6.7089E0
14.922E2	6.7019E0
14.946E2	6.7709E0
14.97E2	6.7905E0
14.994E2	6.8695E0
15.018E2	6.9153E0
15.042E2	6.9901E0
15.066E2	7.0777E0
15.09E2	7.1379E0
15.114E2	7.2018E0
15.137E2	7.3042E0
15.161E2	7.3547E0
15.185E2	7.420E0
15.209E2	7.468E0
15.233E2	7.5467E0
15.257E2	7.6326E0
15.281E2	7.6572E0
15.305E2	7.744E0
15.329E2	7.7789E0
15.352E2	7.8754E0
15.376E2	7.9226E0
15.40E2	8.0191E0
15.424E2	8.0849E0
15.448E2	8.1266E0
15.472E2	8.198E0
15.496E2	8.276E0
15.52E2	8.3594E0
15.543E2	8.3847E0
15.567E2	8.4747E0
15.591E2	8.5332E0
15.615E2	8.6128E0
15.639E2	8.6584E0
15.663E2	8.7372E0
15.687E2	8.7854E0
15.711E2	8.8624E0
15.734E2	8.9025E0
15.758E2	8.9716E0
15.782E2	9.0299E0
15.806E2	9.0898E0
15.83E2	9.1462E0
15.854E2	9.1944E0
15.877E2	9.2667E0
15.901E2	9.3074E0
15.925E2	9.3695E0
15.949E2	9.4734E0
15.973E2	9.5245E0
15.997E2	9.574E0
16.02E2	9.6218E0
16.044E2	9.7231E0
16.068E2	9.7322E0
16.092E2	9.7825E0
16.116E2	9.8265E0
16.14E2	9.8707E0
16.163E2	9.9344E0
16.187E2	9.9824E0
16.211E2	10.021E0
16.235E2	10.079E0
16.259E2	10.111E0
16.283E2	10.156E0
16.306E2	10.171E0
16.33E2	10.25E0
16.354E2	10.301E0
16.378E2	10.333E0
16.402E2	10.398E0
16.425E2	10.459E0
16.449E2	10.494E0
16.473E2	10.539E0
16.497E2	10.555E0
16.521E2	10.596E0
16.544E2	10.624E0
16.568E2	10.665E0
16.592E2	10.71E0
16.616E2	10.765E0
16.64E2	10.784E0
16.663E2	10.805E0
16.687E2	10.79E0
16.711E2	10.82E0
16.735E2	10.821E0
16.759E2	10.85E0
16.782E2	10.869E0
16.806E2	10.908E0
16.83E2	10.891E0
16.854E2	10.909E0
16.877E2	10.912E0
16.901E2	10.904E0
16.925E2	10.909E0
16.949E2	10.90E0
16.973E2	10.905E0
16.996E2	10.922E0
17.02E2	10.889E0
17.044E2	10.882E0
17.068E2	10.842E0
17.091E2	10.833E0
17.115E2	10.767E0
17.139E2	10.772E0
17.163E2	10.72E0
17.186E2	10.765E0
17.21E2	10.736E0
17.234E2	10.742E0
17.258E2	10.70E0
17.282E2	10.669E0
17.305E2	10.646E0
17.329E2	10.618E0
17.353E2	10.582E0
17.377E2	10.555E0
17.40E2	10.53E0
17.424E2	10.466E0
17.448E2	10.455E0
17.472E2	10.379E0
17.495E2	10.341E0
17.519E2	10.304E0
17.543E2	10.27E0
17.566E2	10.27E0
17.59E2	10.228E0
17.614E2	10.199E0
17.638E2	10.157E0
17.661E2	10.137E0
17.685E2	10.08E0
17.709E2	10.044E0
17.733E2	9.9962E0
17.756E2	9.9716E0
17.78E2	9.9289E0
17.804E2	9.8748E0
17.828E2	9.8631E0
17.851E2	9.8352E0
17.875E2	9.8038E0
17.899E2	9.7674E0
17.922E2	9.7504E0
17.946E2	9.7085E0
17.97E2	9.7515E0
17.994E2	9.722E0
18.017E2	9.7403E0
18.041E2	9.7117E0
18.065E2	9.6972E0
18.088E2	9.6636E0
18.112E2	9.6868E0
18.136E2	9.6749E0
18.16E2	9.6884E0
18.183E2	9.644E0
18.207E2	9.6311E0
18.231E2	9.5833E0
18.254E2	9.5827E0
18.278E2	9.568E0
18.302E2	9.5709E0
18.326E2	9.4995E0
18.349E2	9.4383E0
18.373E2	9.371E0
18.397E2	9.2998E0
18.42E2	9.2224E0
18.444E2	9.1172E0
18.468E2	8.9742E0
18.491E2	8.8514E0
18.515E2	8.7097E0
18.539E2	8.5429E0
18.563E2	8.3751E0
18.586E2	8.168E0
18.61E2	7.9626E0
18.634E2	7.6735E0
18.657E2	7.4677E0
18.681E2	7.1977E0
18.705E2	6.9733E0
18.728E2	6.7241E0
18.752E2	6.4376E0
18.776E2	6.1516E0
18.799E2	5.856E0
18.823E2	5.5648E0
18.847E2	5.3024E0
18.871E2	5.0535E0
18.894E2	4.8028E0
18.918E2	4.5658E0
18.942E2	4.3421E0
18.965E2	4.1196E0
18.989E2	3.9259E0
19.013E2	3.7192E0
19.036E2	3.5381E0
19.06E2	3.3245E0
19.084E2	3.2005E0
19.107E2	3.026E0
19.131E2	2.9632E0
19.155E2	2.8107E0
19.178E2	2.7662E0
19.202E2	2.6465E0
19.226E2	2.5943E0
19.249E2	2.5542E0
19.273E2	2.5146E0
19.297E2	2.4942E0
19.32E2	2.4716E0
19.344E2	2.4868E0
19.368E2	2.4617E0
19.391E2	2.4704E0
19.415E2	2.4127E0
19.439E2	2.4475E0
19.462E2	2.4732E0
19.486E2	2.4204E0
19.51E2	2.457E0
19.533E2	2.4772E0
19.557E2	2.5308E0
19.581E2	2.5538E0
19.604E2	2.5888E0
19.628E2	2.6227E0
19.652E2	2.6213E0
19.675E2	2.6717E0
19.699E2	2.6903E0
19.723E2	2.6854E0
19.746E2	2.7642E0
19.77E2	2.7636E0
19.794E2	2.846E0
19.817E2	2.900E0
19.841E2	2.9215E0
19.865E2	2.9527E0
19.888E2	2.9827E0
19.912E2	3.0802E0
19.936E2	3.0995E0
19.959E2	3.0907E0
19.983E2	3.1757E0
20.006E2	3.1909E0
20.03E2	3.2718E0
20.054E2	3.3245E0
20.077E2	3.3257E0
20.101E2	3.3971E0
20.125E2	3.3821E0
20.148E2	3.5124E0
20.172E2	3.5014E0
20.196E2	3.5943E0
20.219E2	3.671E0
20.243E2	3.6593E0
20.267E2	3.7321E0
20.29E2	3.7233E0
20.314E2	3.7787E0
20.337E2	3.7907E0
20.361E2	3.823E0
20.385E2	3.8684E0
20.408E2	3.8669E0
20.432E2	3.901E0
20.456E2	3.9723E0
20.479E2	3.9961E0
20.503E2	4.0274E0
20.527E2	4.0401E0
20.55E2	3.9925E0
20.574E2	4.1132E0
20.598E2	4.0732E0
20.621E2	4.1758E0
20.645E2	4.1356E0
20.668E2	4.2016E0
20.692E2	4.1952E0
20.716E2	4.2226E0
20.739E2	4.2479E0
20.763E2	4.3081E0
20.787E2	4.3048E0
20.81E2	4.335E0
20.834E2	4.3545E0
20.858E2	4.4116E0
20.881E2	4.3903E0
20.905E2	4.4835E0
20.928E2	4.475E0
20.952E2	4.4581E0
20.976E2	4.5371E0
20.999E2	4.5552E0
21.023E2	4.5434E0
21.047E2	4.6344E0
21.07E2	4.5724E0
21.094E2	4.6552E0
21.117E2	4.6505E0
21.141E2	4.6697E0
21.165E2	4.6991E0
